symbol,report_date,Tax Effect Of Unusual Items,Tax Rate For Calcs,Normalized EBITDA,Total Unusual Items,Total Unusual Items Excluding Goodwill,Net Income From Continuing Operation Net Minority Interest,Reconciled Depreciation,Reconciled Cost Of Revenue,EBITDA,EBIT,Net Interest Income,Interest Expense,Normalized Income,Net Income From Continuing And Discontinued Operation,Total Expenses,Total Operating Income As Reported,Diluted Average Shares,Basic Average Shares,Diluted EPS,Basic EPS,Diluted NI Availto Com Stockholders,Net Income Common Stockholders,Net Income,Net Income Including Noncontrolling Interests,Net Income Continuous Operations,Tax Provision,Pretax Income,Other Income Expense,Other Non Operating Income Expenses,Special Income Charges,Gain On Sale Of Ppe,Write Off,Impairment Of Capital Assets,Gain On Sale Of Security,Net Non Operating Interest Income Expense,Interest Expense Non Operating,Operating Income,Operating Expense,Other Operating Expenses,Other Taxes,Selling General And Administration,Selling And Marketing Expense,General And Administrative Expense,Other Gand A,Gross Profit,Cost Of Revenue,Total Revenue,Operating Revenue,Treasury Shares Number,Ordinary Shares Number,Share Issued,Net Debt,Total Debt,Tangible Book Value,Invested Capital,Working Capital,Net Tangible Assets,Capital Lease Obligations,Common Stock Equity,Total Capitalization,Total Equity Gross Minority Interest,Stockholders Equity,Gains Losses Not Affecting Retained Earnings,Other Equity Adjustments,Treasury Stock,Retained Earnings,Additional Paid In Capital,Capital Stock,Common Stock,Total Liabilities Net Minority Interest,Total Non Current Liabilities Net Minority Interest,Other Non Current Liabilities,Non Current Deferred Liabilities,Non Current Deferred Taxes Liabilities,Long Term Debt And Capital Lease Obligation,Long Term Capital Lease Obligation,Long Term Debt,Current Liabilities,Other Current Liabilities,Current Debt And Capital Lease Obligation,Current Capital Lease Obligation,Current Debt,Other Current Borrowings,Payables And Accrued Expenses,Payables,Dividends Payable,Total Tax Payable,Accounts Payable,Total Assets,Total Non Current Assets,Other Non Current Assets,Non Current Deferred Assets,Non Current Deferred Taxes Assets,Net PPE,Accumulated Depreciation,Gross PPE,Other Properties,Current Assets,Other Current Assets,Hedging Assets Current,Inventory,Receivables,Taxes Receivable,Accounts Receivable,Cash Cash Equivalents And Short Term Investments,Cash And Cash Equivalents,Cash Financial,Free Cash Flow,Repurchase Of Capital Stock,Repayment Of Debt,Capital Expenditure,Interest Paid Supplemental Data,Income Tax Paid Supplemental Data,End Cash Position,Beginning Cash Position,Effect Of Exchange Rate Changes,Changes In Cash,Financing Cash Flow,Cash Flow From Continuing Financing Activities,Net Other Financing Charges,Proceeds From Stock Option Exercised,Cash Dividends Paid,Common Stock Dividend Paid,Net Common Stock Issuance,Common Stock Payments,Net Issuance Payments Of Debt,Net Long Term Debt Issuance,Long Term Debt Payments,Investing Cash Flow,Cash Flow From Continuing Investing Activities,Net Other Investing Changes,Net PPE Purchase And Sale,Purchase Of PPE,Operating Cash Flow,Cash Flow From Continuing Operating Activities,Change In Working Capital,Change In Other Working Capital,Change In Other Current Liabilities,Change In Other Current Assets,Change In Payables And Accrued Expense,Change In Payable,Change In Account Payable,Change In Tax Payable,Change In Income Tax Payable,Change In Inventory,Change In Receivables,Changes In Account Receivables,Other Non Cash Items,Stock Based Compensation,Asset Impairment Charge,Deferred Tax,Deferred Income Tax,Depreciation Amortization Depletion,Operating Gains Losses,Gain Loss On Investment Securities,Gain Loss On Sale Of PPE,Net Income From Continuing Operations,sector
EOG,2024-06-30,,,,,,,,,,,,,,,,,,,,,,,,,,,,,,,,31000000.0,,,,,,,,,,,,,,,,,,,,,,,,,,,,,,,,,,,,,,,,,,,,,,,,,,,,,,,,,,,,,,,,,,,,4000000.0,,,2000000.0,,,,5431000000.0,,,,,,,,,,,,,,,,,,,,,,,,,,,,,,,,,,,,,,,,,,,,,,,,,-20000000.0,,Energy
EOG,2024-09-30,12540000.0,0.22,3139000000.0,57000000.0,57000000.0,1673000000.0,1031000000.0,1868000000.0,3196000000.0,2165000000.0,-31000000.0,31000000.0,1628540000.0,1673000000.0,3833000000.0,2089000000.0,568000000.0,564000000.0,2.95,2.97,1673000000.0,1673000000.0,1673000000.0,1673000000.0,1673000000.0,461000000.0,2134000000.0,133000000.0,76000000.0,-22000000.0,-7000000.0,0.0,15000000.0,79000000.0,-31000000.0,31000000.0,2032000000.0,1965000000.0,15000000.0,283000000.0,1667000000.0,1500000000.0,167000000.0,167000000.0,3997000000.0,1868000000.0,5865000000.0,5865000000.0,24125378.0,564718340.0,588843718.0,,4114000000.0,29574000000.0,33350000000.0,5759000000.0,29574000000.0,338000000.0,29574000000.0,33316000000.0,29574000000.0,29574000000.0,-9000000.0,-9000000.0,2912000000.0,26231000000.0,6058000000.0,206000000.0,206000000.0,16577000000.0,12171000000.0,2480000000.0,5949000000.0,5949000000.0,3742000000.0,,3742000000.0,4406000000.0,376000000.0,372000000.0,338000000.0,34000000.0,34000000.0,3658000000.0,3658000000.0,513000000.0,855000000.0,2290000000.0,46151000000.0,35986000000.0,1818000000.0,42000000.0,42000000.0,34126000000.0,-48075000000.0,82201000000.0,6314000000.0,10165000000.0,458000000.0,0.0,1038000000.0,2547000000.0,2000000.0,2545000000.0,6122000000.0,6122000000.0,,2086000000.0,-795000000.0,-8000000.0,-1502000000.0,9000000.0,3000000.0,6122000000.0,5431000000.0,0.0,691000000.0,-1336000000.0,-1336000000.0,,0.0,-533000000.0,-533000000.0,-795000000.0,-795000000.0,-8000000.0,-8000000.0,-8000000.0,-1561000000.0,-1561000000.0,-59000000.0,-1502000000.0,-1502000000.0,3588000000.0,3588000000.0,600000000.0,59000000.0,108000000.0,197000000.0,97000000.0,97000000.0,-159000000.0,256000000.0,256000000.0,30000000.0,109000000.0,109000000.0,63000000.0,58000000.0,15000000.0,220000000.0,220000000.0,1031000000.0,-72000000.0,-79000000.0,7000000.0,1673000000.0,Energy
EOG,2024-12-31,-83603448.275862,0.22968,3045000000.0,-364000000.0,-364000000.0,1251000000.0,1019000000.0,1854000000.0,2681000000.0,1662000000.0,239000000.0,38000000.0,1531396551.724138,1251000000.0,3694000000.0,1592000000.0,561000000.0,557000000.0,2.23,2.25,1251000000.0,1251000000.0,1251000000.0,1251000000.0,1251000000.0,373000000.0,1624000000.0,-571000000.0,-207000000.0,-299000000.0,-23000000.0,2000000.0,274000000.0,-65000000.0,239000000.0,38000000.0,1956000000.0,1840000000.0,37000000.0,291000000.0,1512000000.0,1323000000.0,189000000.0,189000000.0,3796000000.0,1854000000.0,5650000000.0,5650000000.0,31731107.0,557208477.0,588939584.0,,5067000000.0,29351000000.0,33953000000.0,5876000000.0,29351000000.0,465000000.0,29351000000.0,33453000000.0,29351000000.0,29351000000.0,-4000000.0,-4000000.0,3882000000.0,26941000000.0,6090000000.0,206000000.0,206000000.0,17835000000.0,12481000000.0,2395000000.0,5866000000.0,5866000000.0,4220000000.0,118000000.0,4102000000.0,5354000000.0,497000000.0,847000000.0,347000000.0,500000000.0,500000000.0,4010000000.0,4010000000.0,539000000.0,1007000000.0,2464000000.0,47186000000.0,35956000000.0,1705000000.0,39000000.0,39000000.0,34212000000.0,-49297000000.0,83509000000.0,6418000000.0,11230000000.0,503000000.0,0.0,985000000.0,2650000000.0,,2650000000.0,7092000000.0,7092000000.0,,1398000000.0,-993000000.0,-8000000.0,-1365000000.0,65000000.0,192000000.0,7092000000.0,6122000000.0,-1000000.0,971000000.0,-516000000.0,-516000000.0,,11000000.0,-509000000.0,-509000000.0,-993000000.0,-993000000.0,977000000.0,977000000.0,-8000000.0,-1276000000.0,-1276000000.0,89000000.0,-1365000000.0,-1365000000.0,2763000000.0,2763000000.0,128000000.0,-85000000.0,6000000.0,-34000000.0,303000000.0,303000000.0,152000000.0,151000000.0,151000000.0,37000000.0,-99000000.0,-99000000.0,30000000.0,51000000.0,276000000.0,-80000000.0,-80000000.0,1019000000.0,88000000.0,65000000.0,23000000.0,1251000000.0,Energy
EOG,2025-03-31,-51920000.0,0.22,3173000000.0,-236000000.0,-236000000.0,1463000000.0,1013000000.0,1854000000.0,2937000000.0,1924000000.0,-47000000.0,47000000.0,1647080000.0,1463000000.0,3747000000.0,1859000000.0,553000000.0,550000000.0,2.65,2.66,1463000000.0,1463000000.0,1463000000.0,1463000000.0,1463000000.0,414000000.0,1877000000.0,-171000000.0,65000000.0,-45000000.0,-1000000.0,,44000000.0,-191000000.0,-47000000.0,47000000.0,2095000000.0,1893000000.0,56000000.0,341000000.0,1496000000.0,1325000000.0,171000000.0,171000000.0,3988000000.0,1854000000.0,5842000000.0,5842000000.0,37717147.0,551222437.0,588939584.0,,5062000000.0,29516000000.0,34260000000.0,4961000000.0,29516000000.0,318000000.0,29516000000.0,32980000000.0,29516000000.0,29516000000.0,-4000000.0,-4000000.0,4650000000.0,27869000000.0,6095000000.0,206000000.0,206000000.0,17466000000.0,11747000000.0,2368000000.0,5915000000.0,5915000000.0,3464000000.0,,3464000000.0,5719000000.0,566000000.0,1598000000.0,318000000.0,1280000000.0,1280000000.0,3555000000.0,3555000000.0,534000000.0,668000000.0,2353000000.0,46982000000.0,36302000000.0,1626000000.0,44000000.0,44000000.0,34632000000.0,-50310000000.0,84942000000.0,6510000000.0,10680000000.0,563000000.0,,897000000.0,2621000000.0,,2621000000.0,6599000000.0,6599000000.0,,806000000.0,-806000000.0,-8000000.0,-1483000000.0,11000000.0,732000000.0,6599000000.0,7092000000.0,0.0,-493000000.0,-1352000000.0,-1352000000.0,,,-538000000.0,-538000000.0,-806000000.0,-806000000.0,-8000000.0,-8000000.0,-8000000.0,-1430000000.0,-1430000000.0,53000000.0,-1483000000.0,-1483000000.0,2289000000.0,2289000000.0,-524000000.0,-41000000.0,-96000000.0,-43000000.0,-468000000.0,-468000000.0,-129000000.0,-339000000.0,-339000000.0,76000000.0,48000000.0,48000000.0,7000000.0,50000000.0,44000000.0,44000000.0,44000000.0,1013000000.0,192000000.0,191000000.0,,1463000000.0,Energy
EOG,2025-06-30,15640000.0,0.23,2787000000.0,68000000.0,68000000.0,1345000000.0,1053000000.0,1904000000.0,2855000000.0,1802000000.0,-51000000.0,51000000.0,1292640000.0,1345000000.0,3676000000.0,1747000000.0,546000000.0,543000000.0,2.46,2.48,1345000000.0,1345000000.0,1345000000.0,1345000000.0,1345000000.0,406000000.0,1751000000.0,123000000.0,55000000.0,-39000000.0,0.0,15000000.0,24000000.0,107000000.0,-51000000.0,51000000.0,1679000000.0,1772000000.0,69000000.0,301000000.0,1402000000.0,1216000000.0,186000000.0,186000000.0,3451000000.0,1904000000.0,5355000000.0,5355000000.0,43054400.0,545989985.0,589044385.0,,4596000000.0,29238000000.0,33474000000.0,4070000000.0,29238000000.0,360000000.0,29238000000.0,32696000000.0,29238000000.0,29238000000.0,-7000000.0,-7000000.0,5245000000.0,28131000000.0,6153000000.0,206000000.0,206000000.0,17046000000.0,11871000000.0,2398000000.0,6015000000.0,6015000000.0,3458000000.0,,3458000000.0,5175000000.0,342000000.0,1138000000.0,360000000.0,778000000.0,778000000.0,3695000000.0,3695000000.0,1081000000.0,348000000.0,2266000000.0,46284000000.0,37039000000.0,1639000000.0,39000000.0,39000000.0,35361000000.0,-51394000000.0,86755000000.0,6616000000.0,9245000000.0,591000000.0,,934000000.0,2504000000.0,,2504000000.0,5216000000.0,5216000000.0,,239000000.0,-602000000.0,-509000000.0,-1793000000.0,80000000.0,705000000.0,5216000000.0,6599000000.0,1000000.0,-1384000000.0,-1635000000.0,-1635000000.0,,,-528000000.0,-528000000.0,-602000000.0,-602000000.0,-509000000.0,-509000000.0,-509000000.0,-1781000000.0,-1781000000.0,12000000.0,-1793000000.0,-1793000000.0,2032000000.0,2032000000.0,-454000000.0,-8000000.0,-52000000.0,-43000000.0,-428000000.0,-428000000.0,-107000000.0,-321000000.0,-321000000.0,-45000000.0,122000000.0,122000000.0,-2000000.0,53000000.0,39000000.0,105000000.0,105000000.0,1053000000.0,-107000000.0,-107000000.0,,1345000000.0,Energy
EOG,2025-09-30,5130000.0,0.19,3037000000.0,27000000.0,27000000.0,1471000000.0,1169000000.0,2187000000.0,3064000000.0,1895000000.0,-71000000.0,71000000.0,1449130000.0,1471000000.0,3923000000.0,1836000000.0,544000000.0,541000000.0,2.7,2.72,1471000000.0,1471000000.0,1471000000.0,1471000000.0,1471000000.0,353000000.0,1824000000.0,86000000.0,59000000.0,-89000000.0,-18000000.0,56000000.0,15000000.0,116000000.0,-71000000.0,71000000.0,1809000000.0,1736000000.0,54000000.0,309000000.0,1373000000.0,1134000000.0,239000000.0,239000000.0,3545000000.0,2187000000.0,5732000000.0,5732000000.0,45258927.0,543785458.0,589044385.0,4164000000.0,8127000000.0,30285000000.0,37979000000.0,3005000000.0,30285000000.0,433000000.0,30285000000.0,37952000000.0,30285000000.0,30285000000.0,-5000000.0,-5000000.0,5497000000.0,29603000000.0,5978000000.0,206000000.0,206000000.0,21914000000.0,17099000000.0,2496000000.0,6936000000.0,6936000000.0,7667000000.0,,7667000000.0,4815000000.0,469000000.0,460000000.0,433000000.0,27000000.0,27000000.0,3886000000.0,3886000000.0,550000000.0,392000000.0,2944000000.0,52199000000.0,44379000000.0,1757000000.0,37000000.0,37000000.0,42585000000.0,-52488000000.0,95073000000.0,6772000000.0,7820000000.0,646000000.0,19000000.0,945000000.0,2680000000.0,,2680000000.0,3530000000.0,3530000000.0,,1448000000.0,-479000000.0,-1274000000.0,-1663000000.0,33000000.0,189000000.0,3530000000.0,5216000000.0,-1000000.0,-1685000000.0,1167000000.0,1167000000.0,-7000000.0,0.0,-545000000.0,-545000000.0,-479000000.0,-479000000.0,2198000000.0,2198000000.0,-1274000000.0,-5963000000.0,-5963000000.0,164000000.0,-1663000000.0,-1663000000.0,3111000000.0,3111000000.0,138000000.0,-159000000.0,155000000.0,-28000000.0,33000000.0,33000000.0,5000000.0,28000000.0,28000000.0,4000000.0,133000000.0,133000000.0,29000000.0,53000000.0,71000000.0,278000000.0,278000000.0,1169000000.0,-98000000.0,-116000000.0,,1471000000.0,Energy
