symbol,report_date,Tax Effect Of Unusual Items,Tax Rate For Calcs,Normalized EBITDA,Net Income From Continuing Operation Net Minority Interest,Reconciled Depreciation,Reconciled Cost Of Revenue,EBITDA,EBIT,Net Interest Income,Interest Expense,Interest Income,Normalized Income,Net Income From Continuing And Discontinued Operation,Total Expenses,Diluted Average Shares,Basic Average Shares,Diluted EPS,Basic EPS,Diluted NI Availto Com Stockholders,Net Income Common Stockholders,Net Income,Minority Interests,Net Income Including Noncontrolling Interests,Net Income Discontinuous Operations,Net Income Continuous Operations,Tax Provision,Pretax Income,Other Income Expense,Other Non Operating Income Expenses,Net Non Operating Interest Income Expense,Interest Expense Non Operating,Interest Income Non Operating,Operating Income,Operating Expense,Depreciation Amortization Depletion Income Statement,Depreciation And Amortization In Income Statement,Amortization,Amortization Of Intangibles Income Statement,Depreciation Income Statement,Research And Development,Selling General And Administration,General And Administrative Expense,Other Gand A,Salaries And Wages,Gross Profit,Cost Of Revenue,Total Revenue,Operating Revenue,Treasury Shares Number,Ordinary Shares Number,Share Issued,Net Debt,Total Debt,Tangible Book Value,Invested Capital,Working Capital,Net Tangible Assets,Capital Lease Obligations,Common Stock Equity,Total Capitalization,Total Equity Gross Minority Interest,Minority Interest,Stockholders Equity,Gains Losses Not Affecting Retained Earnings,Other Equity Adjustments,Treasury Stock,Retained Earnings,Additional Paid In Capital,Capital Stock,Common Stock,Total Liabilities Net Minority Interest,Total Non Current Liabilities Net Minority Interest,Other Non Current Liabilities,Employee Benefits,Non Current Pension And Other Postretirement Benefit Plans,Non Current Deferred Liabilities,Non Current Deferred Taxes Liabilities,Long Term Debt And Capital Lease Obligation,Long Term Capital Lease Obligation,Long Term Debt,Current Liabilities,Other Current Liabilities,Current Debt And Capital Lease Obligation,Current Capital Lease Obligation,Current Debt,Other Current Borrowings,Pensionand Other Post Retirement Benefit Plans Current,Current Provisions,Payables And Accrued Expenses,Current Accrued Expenses,Payables,Total Tax Payable,Income Tax Payable,Accounts Payable,Total Assets,Total Non Current Assets,Other Non Current Assets,Non Current Deferred Assets,Non Current Deferred Taxes Assets,Investments And Advances,Other Investments,Investmentin Financial Assets,Available For Sale Securities,Long Term Equity Investment,Investmentsin Associatesat Cost,Goodwill And Other Intangible Assets,Other Intangible Assets,Goodwill,Net PPE,Accumulated Depreciation,Gross PPE,Construction In Progress,Other Properties,Machinery Furniture Equipment,Buildings And Improvements,Land And Improvements,Properties,Current Assets,Other Current Assets,Assets Held For Sale Current,Inventory,Finished Goods,Work In Process,Raw Materials,Receivables,Other Receivables,Accounts Receivable,Allowance For Doubtful Accounts Receivable,Gross Accounts Receivable,Cash Cash Equivalents And Short Term Investments,Other Short Term Investments,Cash And Cash Equivalents,Free Cash Flow,Repurchase Of Capital Stock,Repayment Of Debt,Issuance Of Debt,Capital Expenditure,Interest Paid Supplemental Data,Income Tax Paid Supplemental Data,End Cash Position,Other Cash Adjustment Outside Changein Cash,Beginning Cash Position,Effect Of Exchange Rate Changes,Changes In Cash,Financing Cash Flow,Cash From Discontinued Financing Activities,Cash Flow From Continuing Financing Activities,Net Other Financing Charges,Cash Dividends Paid,Common Stock Dividend Paid,Net Common Stock Issuance,Common Stock Payments,Net Issuance Payments Of Debt,Net Short Term Debt Issuance,Short Term Debt Issuance,Net Long Term Debt Issuance,Long Term Debt Payments,Long Term Debt Issuance,Investing Cash Flow,Cash From Discontinued Investing Activities,Cash Flow From Continuing Investing Activities,Net Other Investing Changes,Net Investment Purchase And Sale,Sale Of Investment,Net Business Purchase And Sale,Purchase Of Business,Capital Expenditure Reported,Operating Cash Flow,Cash From Discontinued Operating Activities,Cash Flow From Continuing Operating Activities,Change In Working Capital,Change In Other Working Capital,Change In Other Current Assets,Change In Payables And Accrued Expense,Change In Payable,Change In Account Payable,Change In Tax Payable,Change In Income Tax Payable,Change In Inventory,Change In Receivables,Other Non Cash Items,Stock Based Compensation,Deferred Tax,Deferred Income Tax,Depreciation Amortization Depletion,Depreciation And Amortization,Amortization Cash Flow,Amortization Of Intangibles,Depreciation,Pension And Employee Benefit Expense,Net Income From Continuing Operations,sector
PPG,2024-06-30,,,,,,,,,,,,,,,,,,,,,,,,35000000.0,,,,,,,,,,,,,,,,,,,,0.0,,,,,,,,,,,,,,,,,,,,,,,,,,,,,,,,,,,,,,,,,,,,,,,,,,,,,,,,,,,,,,,,,,,,,,,,,,,,,,,,,,,,-26000000.0,3871000000.0,,,,,,0.0,,,68000000.0,250000000.0,,-3000000.0,,,,,0.0,,,,,,,,178000000.0,178000000.0,,0.0,,,-3000000.0,,,,,,,,,24000000.0,,,,,,,,,,,,,,,,,,35000000.0,35000000.0,89000000.0,0.0,,Basic Materials
PPG,2024-09-30,0.0,0.221,764000000.0,444000000.0,119000000.0,2381000000.0,764000000.0,645000000.0,-19000000.0,67000000.0,48000000.0,444000000.0,468000000.0,3450000000.0,234300000.0,233300000.0,2.0,2.01,468000000.0,468000000.0,468000000.0,-6000000.0,474000000.0,,450000000.0,128000000.0,578000000.0,15000000.0,15000000.0,-19000000.0,67000000.0,48000000.0,582000000.0,1069000000.0,119000000.0,119000000.0,30000000.0,30000000.0,89000000.0,102000000.0,848000000.0,848000000.0,848000000.0,0.0,1651000000.0,2381000000.0,4032000000.0,4032000000.0,,232000000.0,232000000.0,5226000000.0,7269000000.0,-495000000.0,14265000000.0,2917000000.0,-495000000.0,792000000.0,7788000000.0,13926000000.0,7972000000.0,184000000.0,7788000000.0,-2780000000.0,-2780000000.0,14091000000.0,22432000000.0,1258000000.0,969000000.0,969000000.0,13886000000.0,8890000000.0,638000000.0,1022000000.0,1022000000.0,496000000.0,496000000.0,6734000000.0,596000000.0,6138000000.0,4996000000.0,73000000.0,535000000.0,196000000.0,339000000.0,339000000.0,,46000000.0,4342000000.0,,,,,,21858000000.0,13945000000.0,580000000.0,366000000.0,366000000.0,300000000.0,,,,,,8283000000.0,2203000000.0,6080000000.0,4416000000.0,-4854000000.0,9270000000.0,,9270000000.0,,,,,7913000000.0,438000000.0,237000000.0,2263000000.0,1247000000.0,272000000.0,744000000.0,3653000000.0,,3653000000.0,-28000000.0,3681000000.0,1322000000.0,71000000.0,1251000000.0,623000000.0,-199000000.0,-300000000.0,237000000.0,-146000000.0,64000000.0,138000000.0,1228000000.0,,1115000000.0,-76000000.0,196000000.0,-432000000.0,,-432000000.0,-11000000.0,-159000000.0,-159000000.0,-199000000.0,-199000000.0,-63000000.0,237000000.0,237000000.0,-300000000.0,-300000000.0,0.0,-141000000.0,,-138000000.0,10000000.0,1000000.0,108000000.0,-2000000.0,-2000000.0,-146000000.0,769000000.0,,708000000.0,155000000.0,-20000000.0,5000000.0,-23000000.0,-23000000.0,-30000000.0,7000000.0,7000000.0,23000000.0,170000000.0,-3000000.0,9000000.0,-22000000.0,-22000000.0,119000000.0,119000000.0,36000000.0,36000000.0,114000000.0,0.0,450000000.0,Basic Materials
PPG,2024-12-31,0.0,0.21,155000000.0,-52000000.0,88000000.0,1410000000.0,155000000.0,67000000.0,-15000000.0,57000000.0,42000000.0,-52000000.0,-280000000.0,1784000000.0,232800000.0,231800000.0,-1.2,-1.2,-280000000.0,-280000000.0,-280000000.0,-9000000.0,-271000000.0,,-43000000.0,53000000.0,10000000.0,-356000000.0,-20000000.0,-15000000.0,57000000.0,42000000.0,381000000.0,374000000.0,88000000.0,88000000.0,26000000.0,26000000.0,62000000.0,98000000.0,188000000.0,188000000.0,188000000.0,0.0,755000000.0,1410000000.0,2165000000.0,2165000000.0,351218253.0,229927883.0,581146136.0,4545000000.0,6395000000.0,-827000000.0,12600000000.0,1543000000.0,-827000000.0,580000000.0,6785000000.0,11661000000.0,6962000000.0,177000000.0,6785000000.0,-3108000000.0,-3108000000.0,14342000000.0,21994000000.0,1272000000.0,969000000.0,969000000.0,12471000000.0,7457000000.0,754000000.0,968000000.0,968000000.0,405000000.0,405000000.0,5330000000.0,454000000.0,4876000000.0,5014000000.0,90000000.0,1065000000.0,126000000.0,939000000.0,939000000.0,76000000.0,128000000.0,3655000000.0,490000000.0,3165000000.0,130000000.0,130000000.0,3035000000.0,19433000000.0,12876000000.0,569000000.0,303000000.0,303000000.0,331000000.0,105000000.0,85000000.0,85000000.0,141000000.0,141000000.0,7612000000.0,1922000000.0,5690000000.0,4061000000.0,-4217000000.0,8278000000.0,735000000.0,1704000000.0,3545000000.0,1769000000.0,525000000.0,0.0,6557000000.0,368000000.0,,1846000000.0,993000000.0,213000000.0,640000000.0,2985000000.0,508000000.0,2477000000.0,,,1358000000.0,88000000.0,1270000000.0,148000000.0,-241000000.0,1000000.0,-408000000.0,-198000000.0,,,1270000000.0,,1251000000.0,-116000000.0,156000000.0,-808000000.0,,-808000000.0,-2000000.0,-158000000.0,-158000000.0,-241000000.0,-241000000.0,-407000000.0,-407000000.0,,0.0,0.0,0.0,618000000.0,,112000000.0,-2000000.0,,,323000000.0,-2000000.0,-198000000.0,346000000.0,,317000000.0,38000000.0,-93000000.0,6000000.0,-266000000.0,-266000000.0,-233000000.0,-33000000.0,-33000000.0,136000000.0,255000000.0,107000000.0,10000000.0,-29000000.0,-29000000.0,88000000.0,88000000.0,,,,0.0,-43000000.0,Basic Materials
PPG,2025-03-31,0.0,0.243,679000000.0,375000000.0,121000000.0,2142000000.0,679000000.0,558000000.0,-13000000.0,56000000.0,43000000.0,375000000.0,373000000.0,3203000000.0,228900000.0,228000000.0,1.63,1.63,373000000.0,373000000.0,373000000.0,-5000000.0,378000000.0,-2000000.0,380000000.0,122000000.0,502000000.0,34000000.0,34000000.0,-13000000.0,56000000.0,43000000.0,481000000.0,1061000000.0,121000000.0,121000000.0,32000000.0,32000000.0,89000000.0,102000000.0,838000000.0,838000000.0,838000000.0,,1542000000.0,2142000000.0,3684000000.0,3684000000.0,351218253.0,226974896.0,578193149.0,5432000000.0,7862000000.0,-830000000.0,14189000000.0,2064000000.0,-830000000.0,600000000.0,6927000000.0,12501000000.0,7092000000.0,165000000.0,6927000000.0,-2833000000.0,-2833000000.0,14719000000.0,22213000000.0,1297000000.0,969000000.0,969000000.0,14048000000.0,8211000000.0,737000000.0,970000000.0,970000000.0,464000000.0,464000000.0,6040000000.0,466000000.0,5574000000.0,5837000000.0,,1822000000.0,134000000.0,1688000000.0,1688000000.0,,130000000.0,3885000000.0,,,,,,21140000000.0,13239000000.0,596000000.0,414000000.0,414000000.0,317000000.0,,,,,,7757000000.0,1933000000.0,5824000000.0,4155000000.0,-4352000000.0,8507000000.0,,8507000000.0,,,,,7901000000.0,464000000.0,,2115000000.0,1131000000.0,251000000.0,733000000.0,3429000000.0,,3429000000.0,-20000000.0,3449000000.0,1893000000.0,63000000.0,1830000000.0,-227000000.0,-394000000.0,,1249000000.0,-209000000.0,55000000.0,123000000.0,1830000000.0,0.0,1270000000.0,48000000.0,512000000.0,698000000.0,0.0,698000000.0,-3000000.0,-154000000.0,-154000000.0,-394000000.0,-394000000.0,1249000000.0,,,1249000000.0,,1249000000.0,-168000000.0,0.0,-168000000.0,41000000.0,,,0.0,0.0,-209000000.0,-18000000.0,-2000000.0,-16000000.0,-500000000.0,-43000000.0,-34000000.0,203000000.0,203000000.0,202000000.0,1000000.0,1000000.0,-230000000.0,-396000000.0,-20000000.0,23000000.0,-20000000.0,-20000000.0,121000000.0,121000000.0,32000000.0,32000000.0,89000000.0,,380000000.0,Basic Materials
PPG,2025-06-30,0.0,0.234,795000000.0,450000000.0,135000000.0,2432000000.0,795000000.0,660000000.0,-18000000.0,62000000.0,44000000.0,450000000.0,450000000.0,3545000000.0,227700000.0,226800000.0,1.98,1.98,450000000.0,450000000.0,450000000.0,-8000000.0,458000000.0,0.0,458000000.0,140000000.0,598000000.0,-34000000.0,-34000000.0,-18000000.0,62000000.0,44000000.0,650000000.0,1113000000.0,135000000.0,135000000.0,33000000.0,33000000.0,102000000.0,106000000.0,872000000.0,872000000.0,872000000.0,,1763000000.0,2432000000.0,4195000000.0,4195000000.0,351218253.0,225700000.0,576918253.0,5771000000.0,7948000000.0,-560000000.0,14909000000.0,2428000000.0,-560000000.0,616000000.0,7577000000.0,13496000000.0,7744000000.0,167000000.0,7577000000.0,-2342000000.0,-2342000000.0,14869000000.0,22509000000.0,1310000000.0,969000000.0,969000000.0,14355000000.0,8593000000.0,727000000.0,971000000.0,971000000.0,501000000.0,501000000.0,6394000000.0,475000000.0,5919000000.0,5762000000.0,,1554000000.0,141000000.0,1413000000.0,1413000000.0,,147000000.0,4061000000.0,,,,,,22099000000.0,13909000000.0,594000000.0,522000000.0,522000000.0,338000000.0,,,,,,8137000000.0,2025000000.0,6112000000.0,4318000000.0,-4586000000.0,8904000000.0,,8904000000.0,,,,,8190000000.0,450000000.0,,2224000000.0,1180000000.0,270000000.0,774000000.0,3891000000.0,,3891000000.0,-20000000.0,3911000000.0,1625000000.0,64000000.0,1561000000.0,266000000.0,-146000000.0,,0.0,-121000000.0,62000000.0,107000000.0,1561000000.0,0.0,1830000000.0,125000000.0,-394000000.0,-661000000.0,0.0,-661000000.0,-20000000.0,-154000000.0,-154000000.0,-146000000.0,-146000000.0,-341000000.0,,,-341000000.0,,0.0,-120000000.0,0.0,-120000000.0,1000000.0,,,0.0,0.0,-121000000.0,387000000.0,0.0,387000000.0,-314000000.0,21000000.0,37000000.0,3000000.0,3000000.0,98000000.0,-95000000.0,-95000000.0,-26000000.0,-349000000.0,97000000.0,13000000.0,-2000000.0,-2000000.0,135000000.0,135000000.0,33000000.0,33000000.0,102000000.0,,458000000.0,Basic Materials
PPG,2025-09-30,0.0,0.212,759000000.0,444000000.0,138000000.0,2426000000.0,759000000.0,621000000.0,-23000000.0,65000000.0,42000000.0,444000000.0,453000000.0,3494000000.0,226500000.0,225700000.0,2.0,2.01,453000000.0,453000000.0,453000000.0,6000000.0,447000000.0,9000000.0,438000000.0,118000000.0,556000000.0,-9000000.0,-9000000.0,-23000000.0,65000000.0,42000000.0,588000000.0,1068000000.0,138000000.0,138000000.0,32000000.0,32000000.0,106000000.0,106000000.0,824000000.0,824000000.0,824000000.0,,1656000000.0,2426000000.0,4082000000.0,4082000000.0,,224400000.0,224400000.0,5482000000.0,7914000000.0,-299000000.0,15114000000.0,2611000000.0,-299000000.0,600000000.0,7800000000.0,13704000000.0,7956000000.0,156000000.0,7800000000.0,-2264000000.0,-2264000000.0,15019000000.0,22802000000.0,1312000000.0,969000000.0,969000000.0,14188000000.0,8576000000.0,738000000.0,968000000.0,968000000.0,506000000.0,506000000.0,6364000000.0,460000000.0,5904000000.0,5612000000.0,,1550000000.0,140000000.0,1410000000.0,1410000000.0,,115000000.0,3947000000.0,,,,,,22144000000.0,13921000000.0,619000000.0,528000000.0,528000000.0,342000000.0,,,,,,8099000000.0,1983000000.0,6116000000.0,4333000000.0,-4658000000.0,8991000000.0,,8991000000.0,,,,,8223000000.0,415000000.0,,2182000000.0,1159000000.0,277000000.0,746000000.0,3718000000.0,,3718000000.0,-19000000.0,3737000000.0,1908000000.0,76000000.0,1832000000.0,538000000.0,-147000000.0,0.0,0.0,-147000000.0,55000000.0,106000000.0,1832000000.0,0.0,1561000000.0,21000000.0,250000000.0,-306000000.0,0.0,-306000000.0,1000000.0,-160000000.0,-160000000.0,-147000000.0,-147000000.0,0.0,0.0,0.0,0.0,0.0,0.0,-129000000.0,0.0,-129000000.0,18000000.0,,,0.0,0.0,-147000000.0,685000000.0,9000000.0,676000000.0,92000000.0,-20000000.0,26000000.0,-115000000.0,-115000000.0,-118000000.0,3000000.0,3000000.0,30000000.0,171000000.0,29000000.0,-1000000.0,-20000000.0,-20000000.0,138000000.0,138000000.0,,,,,438000000.0,Basic Materials
